<?xml version="1.0" encoding="UTF-8"?>
<xrdMeasurements status="Completed" xmlns="http://www.xrdml.com/XRDMeasurement/1.5" xmlns:xsi="http://www.w3.org/2001/XMLSchema-instance" xsi:schemaLocation="http://www.xrdml.com/XRDMeasurement/1.5 http://www.xrdml.com/XRDMeasurement/1.5/XRDMeasurement.xsd">
  <xrdMeasurement status="Completed" measurementType="Scan">
    <scan status="Completed" appendNumber="0" scanAxis="Omega-2Theta" mode="Continuous">
      <header>
        <startTimeStamp>2013-06-03T11:44:00+03:00</startTimeStamp>
        <source>
          <applicationSoftware version="0.1">None</applicationSoftware>
        </source>
      </header>
      <dataPoints>
        <positions axis="2Theta" unit="deg">
          <startPosition>0.00100</startPosition>
          <endPosition>3.99700</endPosition>
        </positions>
        <positions axis="Omega" unit="deg">
          <startPosition>0.00050</startPosition>
          <endPosition>1.99850</endPosition>
        </positions>
        <positions axis="Phi" unit="deg">
          <commonPosition>0.0</commonPosition>
        </positions>
        <positions axis="Chi" unit="deg">
          <commonPosition>0.000</commonPosition>
        </positions>
        <positions axis="X" unit="mm">
          <commonPosition>0.00</commonPosition>
        </positions>
        <positions axis="Y" unit="mm">
          <commonPosition>0.00</commonPosition>
        </positions>
        <commonCountingTime unit="seconds">2.00</commonCountingTime>
        <intensities unit="counts">
          10926400
          10862720
          10643360
          10228480
          9664160
          9038560
          8361600
          7570240
          6826400
          6117280
          5487520
          4845920
          4236480
          3645280
          3158400
          2660960
          2228000
          1839840
          1448960
          1156800
          855040
          650400
          546311
          412827
          319374
          251712
          202500
          166700
          140992
          123445
          110182
          100825
          93957
          87840
          82792
          79521
          76117
          73108
          70317
          67700
          65882
          63621
          62052
          59909
          58312
          57235
          56056
          54856
          53674
          53027
          51737
          51181
          50738
          49868
          49395
          48781
          48689
          47596
          47761
          47487
          46918
          47078
          46969
          46533
          46255
          46551
          46582
          46640
          46479
          46323
          47175
          46996
          47368
          47620
          47984
          47923
          48041
          48636
          48521
          48923
          48950
          49845
          50182
          50118
          50968
          50806
          51207
          51419
          51265
          51964
          52479
          52438
          53214
          53723
          53555
          53820
          54164
          55217
          54427
          54795
          56057
          55417
          56261
          56746
          56710
          57238
          57586
          57902
          58061
          58369
          58544
          58460
          59307
          59455
          59651
          60031
          59932
          60684
          60523
          61415
          61199
          61525
          61955
          62192
          62624
          62799
          62810
          63214
          63933
          64044
          63659
          64240
          64746
          65002
          65357
          65917
          65680
          65872
          66472
          66650
          66951
          67491
          67353
          67353
          68448
          67801
          68321
          68704
          68853
          68984
          69293
          69714
          69883
          69824
          70808
          70712
          70628
          70692
          70448
          71179
          71768
          71825
          72393
          72330
          72084
          72453
          72642
          72930
          73162
          73099
          73313
          73195
          73764
          74293
          73822
          73887
          74302
          74527
          74529
          74370
          74786
          75255
          75825
          75993
          75879
          75530
          75854
          75945
          76154
          76747
          76517
          76158
          77122
          76645
          76729
          76704
          77862
          77274
          77426
          77811
          77302
          78230
          78676
          78013
          78079
          78784
          78340
          78592
          78552
          78890
          79259
          78672
          79434
          79618
          79470
          79424
          79761
          79793
          80181
          80274
          79870
          80760
          80421
          80374
          80768
          81077
          80279
          80837
          80494
          81052
          80501
          81278
          80827
          81123
          80937
          81605
          81250
          81400
          81184
          81172
          81361
          81000
          80751
          81404
          80609
          80561
          80376
          80548
          79999
          80448
          79431
          79170
          78027
          78027
          77720
          77194
          76097
          75436
          74385
          73109
          71900
          70588
          69059
          67004
          66017
          64312
          62577
          60895
          59679
          57397
          56024
          54076
          52271
          51038
          49241
          47760
          46168
          44377
          43743
          42653
          40672
          39141
          37643
          36675
          35446
          34198
          32998
          31420
          30626
          29588
          28201
          27202
          25900
          24845
          24001
          22899
          22280
          20813
          20303
          19599
          18441
          17833
          17055
          16412
          15632
          14963
          14200
          13538
          12861
          12367
          11741
          11328
          10745
          10576
          10046
          9667
          9184
          8995
          8491
          8214
          7921
          7462
          7160
          6670
          6700
          6477
          5904
          5799
          5502
          5419
          5191
          5008
          4716
          4650
          4453
          4319
          4221
          4057
          3977
          3832
          3770
          3685
          3546
          3459
          3535
          3277
          3132
          3130
          3170
          3049
          3001
          2950
          2953
          2868
          2806
          2869
          2784
          2662
          2692
          2596
          2588
          2688
          2545
          2584
          2537
          2413
          2509
          2401
          2417
          2386
          2332
          2288
          2354
          2278
          2314
          2215
          2293
          2196
          2149
          2118
          2143
          2166
          2091
          2109
          2137
          2088
          2103
          1997
          2020
          1945
          1960
          1869
          1847
          1924
          1863
          1879
          1803
          1826
          1827
          1782
          1726
          1681
          1731
          1644
          1651
          1556
          1650
          1496
          1604
          1610
          1575
          1541
          1443
          1447
          1442
          1418
          1362
          1345
          1356
          1335
          1326
          1235
          1264
          1166
          1268
          1233
          1209
          1155
          1211
          1154
          1142
          1050
          1097
          1002
          1032
          968
          953
          1018
          964
          917
          976
          960
          922
          939
          919
          817
          869
          814
          845
          751
          809
          732
          755
          689
          755
          708
          636
          689
          677
          666
          630
          649
          578
          610
          584
          552
          549
          586
          605
          523
          517
          549
          519
          514
          485
          529
          522
          490
          480
          430
          467
          455
          463
          453
          433
          416
          410
          424
          409
          382
          368
          384
          408
          376
          361
          371
          380
          358
          341
          313
          326
          349
          337
          314
          328
          323
          297
          274
          305
          291
          298
          272
          272
          260
          297
          271
          285
          276
          254
          257
          286
          272
          234
          288
          287
          240
          266
          231
          258
          232
          254
          247
          229
          250
          238
          252
          227
          229
          260
          216
          215
          238
          216
          258
          236
          220
          235
          216
          240
          222
          245
          232
          222
          231
          194
          202
          219
          211
          210
          214
          174
          205
          201
          217
          223
          225
          238
          209
          206
          230
          219
          216
          208
          216
          190
          194
          176
          208
          205
          207
          228
          189
          172
          185
          191
          196
          189
          162
          173
          179
          171
          184
          159
          152
          168
          181
          197
          161
          198
          174
          151
          178
          154
          144
          161
          168
          167
          156
          146
          183
          179
          142
          143
          149
          146
          123
          128
          136
          126
          137
          132
          145
          147
          127
          109
          115
          139
          122
          124
          128
          110
          125
          106
          131
          119
          116
          97
          105
          105
          110
          88
          77
          109
          99
          80
          99
          94
          98
          96
          76
          95
          68
          97
          98
          90
          70
          74
          76
          77
          81
          69
          93
          71
          67
          64
          74
          64
          63
          75
          58
          62
          59
          67
          56
          43
          66
          53
          52
          45
          42
          67
          46
          53
          57
          48
          50
          58
          47
          31
          52
          49
          46
          43
          40
          44
          49
          48
          45
          54
          45
          48
          48
          27
          40
          44
          33
          42
          37
          31
          45
          42
          49
          37
          41
          36
          43
          46
          38
          46
          36
          36
          41
          39
          38
          19
          37
          47
          37
          40
          38
          37
          49
          37
          26
          43
          30
          33
          30
          42
          38
          34
          32
          39
          33
          36
          45
          37
          40
          37
          35
          35
          33
          34
          37
          19
          31
          34
          30
          37
          34
          37
          30
          39
          28
          37
          34
          29
          34
          29
          33
          28
          32
          28
          30
          32
          32
          38
          32
          38
          30
          26
          35
          30
          35
          33
          31
          31
          36
          35
          24
          34
          27
          34
          28
          49
          22
          31
          31
          32
          33
          24
          21
          24
          28
          23
          31
          21
          19
          27
          20
          24
          23
          31
          27
          32
          26
          15
          29
          21
          20
          27
          30
          13
          27
          25
          16
          14
          20
          15
          16
          27
          26
          15
          28
          20
          19
          16
          20
          14
          17
          19
          15
          14
          17
          21
          19
          8
          22
          19
          18
          22
          13
          15
          20
          14
          11
          10
          13
          13
          11
          13
          6
          11
          17
          14
          12
          17
          13
          15
          11
          10
          14
          5
          12
          12
          11
          6
          13
          11
          13
          5
          7
          12
          9
          9
          10
          9
          11
          4
          17
          7
          6
          5
          7
          8
          7
          8
          12
          6
          12
          5
          5
          9
          11
          11
          7
          5
          3
          7
          5
          6
          3
          13
          9
          4
          10
          9
          10
          4
          4
          5
          3
          3
          3
          8
          6
          6
          11
          5
          6
          6
          4
          7
          4
          7
          7
          8
          11
          6
          7
          2
          8
          4
          9
          4
          5
          4
          7
          4
          1
          8
          6
          5
          6
          8
          8
          7
          5
          3
          5
          7
          4
          12
          4
          7
          7
          6
          10
          10
          6
          7
          8
          3
          9
          10
          3
          5
          6
          7
          2
          9
          8
          6
          5
          3
          3
          9
          3
          2
          4
          8
          6
          8
          4
          2
          7
          8
          4
          9
          6
          6
          0
          2
          5
          9
          8
          6
          5
          4
          4
          8
          1
          10
          6
          5
          4
          9
          5
          8
          5
          3
          7
          8
          1
          3
          4
          1
          5
          7
          4
          7
          5
          3
          6
          6
          5
          1
          4
          5
          4
          5
          7
          5
          2
          5
          4
          1
          5
          3
          2
          4
          3
          1
          4
          4
          4
          1
          0
          2
          6
          5
          2
          4
          2
          1
          2
          2
          7
          1
          1
          5
          3
          2
          6
          3
          2
          5
          6
          3
          3
          5
          3
          1
          3
          1
          3
          5
          2
          3
          2
          2
          4
          3
          1
          2
          1
          3
          2
          1
          2
          1
          2
          2
          1
          1
          1
          0
          0
          0
          4
          2
          2
          3
          1
          1
          1
          2
          1
          0
          6
          1
          2
          1
          2
          0
          4
          1
          1
          1
          1
          1
          0
          3
          2
          1
          2
          2
          3
          2
          1
          1
          0
          3
          1
          2
          0
          3
          1
          1
          2
          3
          2
          3
          1
          6
          1
          0
          2
          2
          3
          2
          0
          0
          1
          2
          1
          1
          1
          2
          0
          2
          2
          2
          2
          2
          0
          1
          0
          1
          3
          1
          2
          1
          1
          1
          5
          2
          0
          1
          2
          2
          3
          1
          1
          1
          0
          3
          2
          0
          1
          5
          4
          3
          3
          0
          1
          1
          3
          1
          3
          4
          3
          2
          2
          1
          3
          0
          2
          2
          1
          3
          3
          0
          0
          0
          0
          1
          2
          0
          1
          2
          0
          1
          1
          1
          4
          1
          2
          0
          2
          2
          2
          2
          4
          3
          3
          1
          0
          4
          2
          1
          4
          1
          2
          3
          1
          3
          2
          0
          2
          4
          2
          3
          2
          3
          0
          5
          1
          2
          0
          1
          1
          0
          0
          2
          0
          2
          3
          1
          4
          2
          2
          1
          4
          5
          6
          1
          1
          3
          0
          2
          2
          0
          3
          0
          5
          3
          1
          3
          1
          3
          0
          2
          1
          4
          2
          1
          1
          3
          3
          1
          1
          2
          4
          1
          3
          2
          2
          3
          2
          0
          3
          4
          3
          3
          0
          2
          2
          1
          2
          1
          2
          0
          1
          2
          3
          2
          1
          1
          2
          3
          1
          1
          6
          2
          2
          1
          1
          0
          3
          0
          2
          1
          2
          1
          3
          2
          2
          3
          1
          2
          2
          3
          0
          2
          0
          2
          0
          2
          2
          1
          0
          2
          2
          3
          3
          2
          1
          2
          1
          2
          1
          5
          0
          2
          1
          2
          0
          1
          3
          0
          2
          1
          1
          1
          4
          2
          2
          2
          1
          3
          1
          1
          2
          1
          1
          0
          2
          0
          3
          3
          2
          1
          0
          1
          1
          3
          0
          2
          0
          4
          1
          3
          2
          3
          4
          1
          0
          0
          1
          2
          2
          2
          1
          3
          2
          0
          4
          3
          1
          3
          2
          3
          3
          0
          2
          0
          7
          0
          5
          5
          2
          3
          1
          2
          3
          4
          1
          1
          3
          1
          5
          4
          3
          0
          2
          2
          1
          0
          4
          4
          1
          2
          2
          0
          2
          2
          1
          2
          2
          2
          2
          5
          1
          0
          1
          2
          2
          4
          6
          1
          4
          2
          1
          1
          1
          2
          1
          0
          6
          2
          3
          3
          3
          4
          1
          4
          0
          3
          2
          3
          2
          0
          2
          2
          2
          1
          1
          3
          0
          4
          0
          1
          0
          2
          2
          2
          3
          4
          2
          2
          1
          4
          1
          2
          1
          5
          0
          2
          0
          0
          4
          1
          3
          2
          2
          1
          2
          2
          1
          4
          2
          2
          2
          3
          5
          0
          3
          0
          1
          0
          2
          0
          1
          6
          0
          5
          3
          2
          0
          0
          1
          3
          2
          1
          0
          1
          2
          2
          0
          0
          0
          2
          3
          2
          1
          3
          4
          0
          1
          4
          2
          2
          3
          3
          1
          2
          1
          1
          0
          1
          3
          2
          4
          2
          2
          1
          3
          3
          1
          1
          3
          3
          0
          1
          3
          1
          1
          3
          4
          1
          4
          3
          1
          4
          0
          2
          0
          0
          4
          2
          1
          3
          3
          3
          2
          6
          1
          2
          3
          3
          1
          3
          2
          3
          1
          1
          0
          0
          4
          3
          5
          3
          2
          2
          3
          1
          3
          2
          0
          2
          5
          6
          1
          5
          3
          1
          2
          0
          2
          2
          3
          1
          4
          1
          2
          3
          4
          4
          2
          1
          2
          2
          3
          4
          2
          3
          3
          6
          0
          1
          12
          2
          2
          1
          0
          3
          4
          0
          1
          2
          1
          4
          1
          4
          5
          3
          0
          1
          5
          3
          5
          3
          3
          2
          1
          7
          1
          3
          3
          3
          2
          2
          7
          4
          2
          0
          3
          2
          4
          2
          3
          3
          4
          2
          2
          1
          4
          1
          3
          2
          2
          2
          0
          4
          3
          1
          3
          1
          0
          3
          0
          4
          2
          1
          0
          6
          6
          3
          0
          2
          1
          5
          2
          3
          3
          0
          4
          3
          1
          2
          2
          5
          2
          4
          4
          3
          4
          1
          4
          1
          3
          2
          5
          0
          4
          3
          1
          1
          7
          3
          4
          2
          2
          1
          3
          2
          1
          0
          0
          1
          2
          1
          2
          1
          3
          1
          2
          2
          1
          0
          4
          4
          3
          2
          2
          4
          0
          0
          2
          4
          4
          1
          2
          1
          4
          3
          1
          2
          3
          0
          2
          4
          6
          1
          3
          5
          0
          1
          3
          3
          4
          2
          1
          5
          4
          3
          3
          5
          1
          2
          0
          1
          1
          1
          1
          3
          4
          2
          1
          5
          1
          3
          4
          3
          0
          4
          2
          2
          1
          0
          4
          1
          2
          1
          3
          3
          1
          2
          0
          7
          1
          1
          6
          1
          3
          3
          2
          3
          3
          1
          3
          1
          2
          3
          2
          2
          1
          1
          1
          2
          2
          3
          0
          2
          4
          1
          5
          0
          1
          3
          2
          2
          4
          2
          1
          3
          1
          2
          3
          2
          1
          1
          2
          2
          2
          1
          3
          1
          3
          3
          1
          1
          0
          1
          2
          2
          3
          2
          1
          3
          1
          3
          0
          2
          1
          0
          3
          0
          4
          0
          0
          3
          4
          0
          1
          3
          3
          1
          1
          1
          1
          3
          2
          4
          2
          5
          2
          2
          4
          5
          1
          3
          2
          1
          2
          3
          0
          3
          2
          2
          1
          3
          3
          2
          1
          1
          2
          2
          1
          1
          4
          2
          3
          4
          0
          4
          1
          4
        </intensities>
      </dataPoints>
    </scan>
  </xrdMeasurement>
</xrdMeasurements>
