SampleIdent, SampleID,/
Title1,POWDLL ,/
Title2, SampleID,/
DiffrType,______,/
DiffrNumber,1,/
Anode, Cu,/
LabdaAlpha1, 1.54056,/
LabdaAlpha2, 1.54439,/
RatioAlpha21, 0.50000,/
DivergenceSlit,Fixed,1,/
ReceivingSlit,0.1,/
MonochromatorUsed,NO  ,/
GeneratorVoltage,  __,/
TubeCurrent,  __,/
FileDateTime,11-07-2017,/
DataAngleRange,  0.0010, 3.9970,/
ScanStepSize,    0.0020,/
ScanType,STEP,/
ScanStepTime,    0.00,/
RawScan	
 4746468, 5122644, 5454552, 5585112, 5681604, 5678136, 5494536, 5261160
 4988004, 4531248, 4195056, 3908232, 3503496, 3126300, 2745840, 2430864
 2094876, 1755420, 1464720, 1170756,  986136,  760308,  612612,  475524
  351095,  282615,  230932,  194399,  166629,  148090,  135412,  125614
  118832,  114559,  110284,  107081,  105124,  102737,  100246,   98604
   97131,   96466,   94938,   94274,   93611,   92690,   92682,   92496
   92325,   92105,   92653,   92889,   92726,   92662,   93036,   94118
   94602,   95245,   95881,   96196,   97804,   98513,   98879,   99773
  100918,  101101,  102421,  103369,  104193,  105147,  106914,  107637
  108902,  109612,  110958,  112012,  113206,  114285,  115575,  116587
  117445,  118789,  119981,  121642,  122780,  123644,  125188,  126424
  127555,  129128,  130076,  131073,  132747,  134054,  135838,  136396
  138064,  139495,  140249,  141306,  141938,  144176,  145729,  146671
  147635,  148993,  150934,  151775,  153322,  154383,  155537,  157023
  158251,  158931,  160575,  161371,  163032,  163509,  165333,  166407
  167887,  169597,  170427,  172841,  172911,  174098,  174895,  176559
  178050,  179082,  180974,  181549,  183015,  184264,  186651,  187579
  188226,  188790,  190609,  191477,  193039,  194766,  195977,  197329
  198395,  199114,  200368,  201608,  202395,  204594,  204971,  207695
  208665,  209792,  210219,  212002,  213604,  214704,  215700,  216250
  217220,  219695,  220689,  222331,  222486,  225242,  226111,  227293
  228579,  230262,  231606,  232341,  233085,  235102,  236616,  236795
  238436,  239717,  240070,  242281,  243681,  244250,  245648,  246672
  247374,  249134,  249875,  251006,  253214,  253658,  255323,  255330
  256924,  257337,  257972,  259682,  260679,  261888,  262903,  262847
  264519,  266557,  267225,  267977,  269237,  269940,  271418,  270988
  273278,  274422,  273854,  274249,  275263,  276588,  278094,  279422
  279343,  280063,  280707,  280837,  281746,  282790,  283949,  283664
  285293,  286608,  286779,  287288,  287329,  287578,  289299,  289226
  290065,  290175,  290499,  292354,  292175,  292875,  292436,  292896
  294042,  294185,  294254,  293643,  294633,  295652,  294492,  295679
  295162,  295684,  295086,  295514,  296448,  294934,  295600,  295803
  294995,  295816,  296301,  294711,  294236,  293885,  295172,  293073
  294408,  291995,  292225,  291228,  290469,  289926,  289629,  287895
  286401,  285167,  283673,  281406,  279843,  276396,  274343,  270292
  267865,  263594,  259052,  255366,  250494,  245676,  241350,  235139
  229454,  224773,  217892,  212088,  205231,  198751,  192616,  184365
  176517,  169555,  162369,  154820,  147017,  139556,  132068,  124573
  117592,  110483,  103066,   96736,   90574,   84549,   78614,   73364
   68367,   63635,   59021,   55375,   51623,   48564,   45351,   42880
   39694,   37581,   36044,   34001,   32755,   31482,   30540,   29772
   29083,   27994,   27397,   27271,   27034,   26374,   25906,   26000
   26050,   25916,   25552,   25507,   25599,   25463,   25319,   25322
   25404,   24920,   24698,   24636,   24310,   24594,   24016,   24121
   23411,   23361,   23096,   22663,   22596,   21952,   21787,   21318
   20936,   20644,   20114,   20017,   19475,   18918,   18522,   18207
   17995,   17237,   16714,   16392,   15872,   15313,   15217,   14447
   13906,   13815,   13127,   12812,   12380,   11939,   11529,   10949
   10607,   10514,   10006,    9676,    9348,    9096,    8506,    8375
    7977,    7892,    7514,    7339,    7001,    6857,    6599,    6347
    6090,    5874,    5881,    5654,    5596,    5515,    5279,    5218
    5251,    4958,    5013,    4872,    4865,    4750,    4748,    4653
    4684,    4590,    4607,    4551,    4509,    4544,    4632,    4512
    4624,    4327,    4519,    4530,    4485,    4514,    4463,    4410
    4630,    4524,    4523,    4403,    4577,    4414,    4467,    4633
    4491,    4526,    4475,    4448,    4472,    4539,    4394,    4403
    4361,    4257,    4211,    4322,    4268,    4292,    4032,    4139
    4071,    3952,    3988,    3965,    3991,    3838,    3786,    3668
    3717,    3595,    3573,    3479,    3375,    3272,    3267,    3241
    3059,    3090,    3032,    3010,    2974,    2785,    2752,    2702
    2691,    2601,    2515,    2427,    2409,    2369,    2360,    2153
    2166,    2086,    2084,    2091,    1943,    1897,    1772,    1788
    1782,    1689,    1593,    1671,    1589,    1573,    1461,    1391
    1423,    1366,    1290,    1329,    1230,    1229,    1259,    1114
    1089,    1096,    1102,    1107,    1077,    1102,    1014,    1004
     972,    1023,     985,    1001,     985,     955,     963,     938
     937,     890,     915,     886,     902,     885,     950,     930
     921,     977,     921,     962,     934,     929,     922,     967
     952,     954,     979,     941,     918,     942,     913,     948
     967,     935,     905,     949,    1004,     947,     963,     930
     908,     944,     946,     993,     893,     928,     928,     959
     887,     930,     980,     905,     921,     939,     858,     904
     907,     848,     876,     871,     878,     829,     830,     829
     783,     793,     794,     740,     750,     724,     772,     735
     705,     769,     710,     669,     688,     659,     648,     643
     606,     588,     605,     564,     526,     515,     527,     484
     513,     503,     504,     484,     462,     462,     414,     447
     404,     379,     428,     373,     378,     326,     374,     341
     340,     333,     303,     322,     313,     282,     287,     277
     303,     266,     285,     249,     245,     223,     229,     242
     224,     243,     240,     231,     229,     246,     204,     208
     249,     225,     224,     222,     186,     229,     242,     207
     207,     202,     215,     235,     236,     224,     208,     236
     214,     243,     249,     226,     230,     229,     229,     253
     235,     304,     253,     221,     269,     268,     258,     239
     263,     275,     271,     250,     270,     272,     268,     232
     233,     244,     249,     248,     237,     274,     249,     240
     288,     258,     262,     283,     250,     241,     249,     236
     248,     230,     216,     213,     240,     231,     208,     213
     240,     223,     222,     238,     204,     197,     193,     204
     179,     195,     176,     164,     166,     182,     154,     172
     164,     168,     155,     164,     144,     153,     142,     136
     117,     125,     120,     124,     100,     107,     109,     117
     100,      99,      94,     113,      86,      67,      75,      87
      80,      89,      71,      72,      72,      72,      66,      95
      69,      73,      69,      65,      71,      57,      61,      53
      55,      52,      54,      47,      61,      58,      59,      52
      56,      73,      57,      53,      45,      35,      53,      46
      45,      55,      51,      51,      51,      50,      65,      69
      54,      47,      64,      50,      62,      59,      63,      60
      66,      59,      77,      57,      69,      61,      64,      66
      59,      59,      60,      61,      54,      72,      84,      74
      75,      67,      74,      56,      81,      52,      74,      76
      70,      65,      54,      62,      84,      66,      73,      69
      76,      67,      69,      54,      72,      67,      51,      58
      87,      65,      51,      51,      64,      50,      58,      42
      55,      49,      51,      43,      44,      55,      48,      52
      39,      40,      55,      59,      47,      54,      49,      54
      34,      37,      42,      36,      27,      33,      30,      26
      32,      27,      33,      32,      33,      32,      25,      23
      20,      22,      16,      30,      32,      21,      13,      13
      14,      24,      10,      20,      12,      10,      16,      11
      11,      13,      14,      19,      10,      20,      15,      11
      15,      12,      18,      18,      13,      15,      15,      14
      19,      16,      14,      11,      21,      18,      15,      13
      16,      17,      13,      12,      20,      23,      22,      21
      25,      16,      24,      20,      30,      15,      15,      27
      21,      21,      24,      23,      26,      19,      31,      15
      23,      21,      32,      25,      27,      28,      27,      25
      35,      24,      20,      20,      30,      25,      24,      33
      27,      23,      38,      21,      25,      32,      30,      21
      22,      26,      34,      26,      20,      24,      21,      21
      20,      22,      15,      19,      17,      19,      22,      19
      14,      11,      18,      15,      15,      16,      17,      28
      10,      15,      11,      16,      13,      16,      13,      10
       8,      10,      12,      13,      11,       7,       9,       9
       8,      15,       9,       9,       9,       8,       7,      10
       2,       7,      10,       3,       6,       7,       2,       1
       6,       6,       6,      10,       7,       4,       4,       5
       5,       7,       4,       3,       8,       8,       2,      10
       6,      11,       7,       7,       4,       4,       6,       4
       7,       9,       9,       8,       9,      13,      14,      11
       6,       9,      13,      10,      10,      12,       3,       6
      12,       5,      13,      10,      12,       7,      20,      11
      20,      14,      12,      13,      12,       9,       8,      14
       4,      16,       6,      16,      13,      10,      12,      19
      11,       8,      17,      13,      14,      10,      12,      12
      15,      14,      14,      11,       6,      16,       8,      14
      12,      10,       9,       8,       9,      17,      14,       3
       5,      13,       6,       5,      11,       9,       7,       5
       9,       5,       9,      12,       8,      12,       7,      11
       2,      12,       7,       4,       6,       8,       1,       7
       4,       7,       5,       5,       7,       4,       8,       8
       5,       4,       5,       8,       3,       7,       4,       3
       3,       2,       6,       7,       8,       4,       3,       5
       7,       6,       3,       4,       5,       7,       4,       0
       1,       6,       2,       8,       8,       3,       7,       9
       9,       8,       4,       5,       5,       6,       7,       6
       4,       5,       6,       6,       4,      11,       9,       6
       9,       5,      12,       9,       7,       8,      11,      10
       4,      12,      10,       9,      13,       8,       7,       9
       6,      15,       8,      12,       8,      10,      10,      10
       4,       9,       9,      11,       8,      12,       5,      10
       7,       8,      11,      12,       9,      12,      14,       6
       6,       8,      10,      10,       7,      10,       6,      10
      13,      12,      10,       8,      12,       7,       6,       8
       7,       6,      12,       6,      10,      10,       7,       6
       4,       7,       6,       3,       9,       6,       3,       7
       8,       4,       3,       6,       6,       5,       3,       7
       0,       5,       3,       6,       3,       5,       1,       4
       2,       7,       5,       6,       3,       4,       9,       3
       0,       5,       1,       3,       6,       3,       6,       4
       1,       2,       3,       3,       4,       6,       3,      10
       4,       4,       2,       4,       5,       4,       5,       7
       4,       9,       5,       5,       4,       7,       2,       4
       6,      11,       5,       6,       6,       8,       6,       9
       2,       5,       6,       5,       6,       6,       7,       1
       9,       8,       4,       3,      11,       7,       8,      10
       4,       8,       9,      12,       6,       8,       6,       7
       8,       9,       8,      10,       9,       6,       5,       4
       9,       9,       5,       7,      10,       4,       7,       7
       9,       6,       9,       2,       6,       4,       7,       6
       7,       8,       6,       7,       6,       2,       6,       7
       5,      11,       7,       2,       4,       5,       5,      12
       7,       5,       5,      10,       3,       5,       7,       4
       6,       8,       3,       4,       4,       7,       6,       4
       4,       5,       2,       4,       6,       9,       6,       4
       4,       2,       2,       7,       6,       6,       4,       5
       7,       6,       4,       5,       3,       2,       3,       3
       5,       4,       6,       4,       2,       2,       3,       3
       3,       1,       4,       2,       4,       6,       3,       2
       1,       5,       4,       5,       3,       3,       4,       3
       0,       2,       4,       4,      10,       2,       8,       4
       8,       3,       5,       7,       2,       4,       2,       2
       2,       4,       3,       4,       9,       2,       6,       8
       4,       5,       4,       6,       3,       6,       2,       5
       6,       4,       3,       5,       2,       8,       6,       4
       4,       5,       5,       6,      12,       2,       5,       3
       3,       7,       3,       7,       4,       6,       4,       4
      10,      10,       2,       6,       6,       5,       1,       5
       3,       5,       9,       3,       5,       6,       5,       4
       2,       3,       5,       1,       4,       2,       4,       1
       4,       2,       2,       2,       4,       5,       4,       0
       2,       3,       3,       3,       1,       0,       2,       4
       3,       4,       3,       2,       1,       3,       2,       2
       2,       3,       1,       2,       6,       0,       4,       0
       1,       2,       1,       3,       5,       3,       4,       2
       2,       4,       2,       2,       2,       6,       3,       2
       2,       2,       5,       0,       3,       4,       5,       4
       1,       0,       2,       1,       2,       6,       1,       5
       2,       5,       1,       4,       1,       4,       2,       3
       7,       4,       4,       2,       6,       1,       5,       5
       2,       2,       1,       2,       2,       3,       4,       6
       7,       3,       4,       0,       4,       4,       2,       5
       1,       5,       1,       2,       5,       1,       4,       4
       4,       1,       6,       5,       6,       0,       4,       5
       3,       1,       5,       2,       0,       2,       4,       3
       6,       1,       4,       3,       1,       7,       1,       4
       2,       2,       4,       4,       4,       4,       3,       3
       3,       5,       0,       4,       0,       1,       1,       4
       8,       2,       3,       3,       1,       2,       2,       3
       2,       1,       3,       2,       3,       3,       2,       4
       2,       2,       2,       2,       2,       1,       2,       5
       2,       1,       1,       4,       4,       2,       1,       1
       3,       3,       1,       3,       4,       3,       4,       2
       3,       3,       2,       3,       0,       1,       2,       0
       3,       2,       3,       2,       2,       2,       1,       2
       2,       4,       1,       5,       1,       1,       4,       5
       3,       3,       2,       3,       1,       2,       0,       1
       2,       2,       5,       3,       0,       1,       7,       3
       1,       2,       2,       0,       1,       1,       3,       2
       4,       4,       3,       3,       4,       3,       0,       1
       3,       1,       6,       2,       3,       0,       2,       0
       5,       1,       2,       3,       4,       0,       2,       4
       2,       3,       3,       3,       1,       2,       4,       0
       1,       2,       4,       2,       1,       4,       3,       2
       7,       3,       4,       2,       3,       1,       2,       2
       5,       0,       0,       1,       1,       4,       2,       8
       1,       1,       0,       1,       2,       2,       1,       1
       4,       0,       2,       4,       1,       4,       4,       0
       2,       5,       2,       1,       2,       2,       0,       2
       5,       1,       0,       2,       3,       1,       2,       2
       0,       0,       0,       1,       4,       3,       0,       2
       0,       2,       0,       0,       1,       1,       0,       1
       0,       2,       1,       0,       1,       0,       0,       1
       0,       3,       1,       1,       3,       0,       1,       0
       1,       0,       3,       1,       2,       0,       3,       1
       2,       5,       0,       1,       3,       2,       4,       1
       1,       2,       1,       4,       3,       2,       2,       0
       2,       1,       1,       4,       2,       2,       1,       1
       0,       2,       1,       4,       3,       1,       2,       1
       3,       1,       2,       2,       1,       0,       3,       3
       1,       2,       2,       2,       3,       1,       2,       0
       3,       1,       4,       5,       3,       1,       1,       3
       3,       1,       2,       1,       6,       1,       3,       2
       2,       2,       0,       2,       1,       1,       2,       1
       0,       2,       3,       1,       2,       1,       4,       1
       2,       1,       1,       1,       3,       1,       2,       1
       0,       1,       0,       4,       2,       1,       4,       2
       1,       2,       5,       3,       2,       0,       3,/